Time,Y Velocity,Y Position
0.001,1,0.001
0.002,0.98038,0.00198038
0.003,0.97057,0.002955855
0.004,0.96076,0.00392152
0.005,0.95095,0.004877375
0.006,0.94114,0.00582342
0.007,0.93133,0.006759655
0.008,0.92152,0.00768608
0.009,0.91171,0.008602695
0.01,0.9019,0.0095095
0.011,0.89209,0.010406495
0.012,0.88228,0.01129368
0.013,0.87247,0.012171055
0.014,0.86266,0.01303862
0.015,0.85285,0.013896375
0.016,0.84304,0.01474432
0.017,0.83323,0.015582455
0.018,0.82342,0.01641078
0.019,0.81361,0.017229295
0.02,0.8038,0.018038
0.021,0.79399,0.018836895
0.022,0.78418,0.01962598
0.023,0.77437,0.020405255
0.024,0.76456,0.02117472
0.025,0.75475,0.021934375
0.026,0.74494,0.02268422
0.027,0.73513,0.023424255
0.028,0.72532,0.02415448
0.029,0.71551,0.024874895
0.03,0.7057,0.0255855
0.031,0.69589,0.026286295
0.032,0.68608,0.02697728
0.033,0.67627,0.027658455
0.034,0.66646,0.02832982
0.035,0.65665,0.028991375
0.036,0.64684,0.02964312
0.037,0.63703,0.030285055
0.038,0.62722,0.03091718
0.039,0.61741,0.031539495
0.04,0.6076,0.032152
0.041,0.59779,0.032754695
0.042,0.58798,0.03334758
0.043,0.57817,0.033930655
0.044,0.56836,0.03450392
0.045,0.55855,0.035067375
0.046,0.54874,0.03562102
0.047,0.53893,0.036164855
0.048,0.52912,0.03669888
0.049,0.51931,0.037223095
0.05,0.5095,0.0377375
0.051,0.49969,0.038242095
0.052,0.48988,0.03873688
0.053,0.48007,0.039221855
0.054,0.47026,0.03969702
0.055,0.46045,0.040162375
0.056,0.45064,0.04061792
0.057,0.44083,0.041063655
0.058,0.43102,0.04149958
0.059,0.42121,0.041925695
0.06,0.4114,0.042342
0.061,0.40159,0.042748495
0.062,0.39178,0.04314518
0.063,0.38197,0.043532055
0.064,0.37216,0.04390912
0.065,0.36235,0.044276375
0.066,0.35254,0.04463382
0.067,0.34273,0.044981455
0.068,0.33292,0.04531928
0.069,0.32311,0.045647295
0.07,0.3133,0.0459655
0.071,0.30349,0.046273895
0.072,0.29368,0.04657248
0.073,0.28387,0.046861255
0.074,0.27406,0.04714022
0.075,0.26425,0.047409375
0.076,0.25444,0.04766872
0.077,0.24463,0.047918255
0.078,0.23482,0.04815798
0.079,0.22501,0.048387895
0.08,0.2152,0.048608
0.081,0.20539,0.048818295
0.082,0.19558,0.04901878
0.083,0.18577,0.049209455
0.084,0.17596,0.04939032
0.085,0.16615,0.049561375
0.086,0.15634,0.04972262
0.087,0.14653,0.049874055
0.088,0.13672,0.05001568
0.089,0.12691,0.050147495
0.09,0.1171,0.0502695
0.091,0.10729,0.050381695
0.092,0.09748,0.05048408
0.093,0.08767,0.050576655
0.094,0.07786,0.05065942
0.095,0.06805,0.050732375
0.096,0.05824,0.05079552
0.097,0.04843,0.050848855
0.098,0.03862,0.05089238
0.099,0.02881,0.050926095
0.1,0.019,0.05095
0.101,0.00919,0.050964095
0.102,0,0.050964095
0.103,0,0.050964095
0.104,0,0.050964095
0.105,0,0.050964095
0.106,0,0.050964095
0.107,0,0.050964095
0.108,0,0.050964095
0.109,0,0.050964095
0.11,0,0.050964095
0.111,0,0.050964095
0.112,0,0.050964095
0.113,0,0.050964095
0.114,0,0.050964095
0.115,0,0.050964095
0.116,0,0.050964095
0.117,0,0.050964095
0.118,0,0.050964095
0.119,0,0.050964095
0.12,0,0.050964095
0.121,0,0.050964095
0.122,0,0.050964095
0.123,0,0.050964095
0.124,0,0.050964095
0.125,0,0.050964095
0.126,0,0.050964095
0.127,0,0.050964095
0.128,0,0.050964095
0.129,0,0.050964095
0.13,0,0.050964095
0.131,0,0.050964095
0.132,0,0.050964095
0.133,0,0.050964095
0.134,0,0.050964095
0.135,0,0.050964095
0.136,0,0.050964095
0.137,0,0.050964095
0.138,0,0.050964095
0.139,0,0.050964095
0.14,0,0.050964095
0.141,0,0.050964095
0.142,0,0.050964095
0.143,0,0.050964095
0.144,0,0.050964095
0.145,0,0.050964095
0.146,0,0.050964095
0.147,0,0.050964095
0.148,0,0.050964095
0.149,0,0.050964095
0.15,0,0.050964095
0.151,0,0.050964095
0.152,0,0.050964095
0.153,0,0.050964095
0.154,0,0.050964095
0.155,0,0.050964095
0.156,0,0.050964095
0.157,0,0.050964095
0.158,0,0.050964095
0.159,0,0.050964095
0.16,0,0.050964095
0.161,0,0.050964095
0.162,0,0.050964095
0.163,0,0.050964095
0.164,0,0.050964095
0.165,0,0.050964095
0.166,0,0.050964095
0.167,0,0.050964095
0.168,0,0.050964095
0.169,0,0.050964095
0.17,0,0.050964095
0.171,0,0.050964095
0.172,0,0.050964095
0.173,0,0.050964095
0.174,0,0.050964095
0.175,0,0.050964095
0.176,0,0.050964095
0.177,0,0.050964095
0.178,0,0.050964095
0.179,0,0.050964095
0.18,0,0.050964095
0.181,0,0.050964095
0.182,0,0.050964095
0.183,0,0.050964095
0.184,0,0.050964095
0.185,0,0.050964095
0.186,0,0.050964095
0.187,0,0.050964095
0.188,0,0.050964095
0.189,0,0.050964095
0.19,0,0.050964095
0.191,0,0.050964095
0.192,0,0.050964095
0.193,0,0.050964095
0.194,0,0.050964095
0.195,0,0.050964095
0.196,0,0.050964095
0.197,0,0.050964095
0.198,0,0.050964095
0.199,0,0.050964095
0.2,0,0.050964095
0.201,0,0.050964095
0.202,0,0.050964095
0.203,0,0.050964095
0.204,0,0.050964095
0.205,0,0.050964095
0.206,0,0.050964095
0.207,0,0.050964095
0.208,0,0.050964095
0.209,0,0.050964095
0.21,0,0.050964095
0.211,0,0.050964095
0.212,0,0.050964095
0.213,0,0.050964095
0.214,0,0.050964095
0.215,0,0.050964095
0.216,0,0.050964095
0.217,0,0.050964095
0.218,0,0.050964095
0.219,0,0.050964095
0.22,0,0.050964095
0.221,0,0.050964095
0.222,0,0.050964095
0.223,0,0.050964095
0.224,0,0.050964095
0.225,0,0.050964095
0.226,0,0.050964095
0.227,0,0.050964095
0.228,0,0.050964095
0.229,0,0.050964095
0.23,0,0.050964095
0.231,0,0.050964095
0.232,0,0.050964095
0.233,0,0.050964095
0.234,0,0.050964095
0.235,0,0.050964095
0.236,0,0.050964095
0.237,0,0.050964095
0.238,0,0.050964095
0.239,0,0.050964095
0.24,0,0.050964095
0.241,0,0.050964095
0.242,0,0.050964095
0.243,0,0.050964095
0.244,0,0.050964095
0.245,0,0.050964095
0.246,0,0.050964095
0.247,0,0.050964095
0.248,0,0.050964095
0.249,0,0.050964095
0.25,0,0.050964095
0.251,0,0.050964095
0.252,0,0.050964095
0.253,0,0.050964095
0.254,0,0.050964095
0.255,0,0.050964095
0.256,0,0.050964095
0.257,0,0.050964095
0.258,0,0.050964095
0.259,0,0.050964095
0.26,0,0.050964095
0.261,0,0.050964095
0.262,0,0.050964095
0.263,0,0.050964095
0.264,0,0.050964095
0.265,0,0.050964095
0.266,0,0.050964095
0.267,0,0.050964095
0.268,0,0.050964095
0.269,0,0.050964095
0.27,0,0.050964095
0.271,0,0.050964095
0.272,0,0.050964095
0.273,0,0.050964095
0.274,0,0.050964095
0.275,0,0.050964095
0.276,0,0.050964095
0.277,0,0.050964095
0.278,0,0.050964095
0.279,0,0.050964095
0.28,0,0.050964095
0.281,0,0.050964095
0.282,0,0.050964095
0.283,0,0.050964095
0.284,0,0.050964095
0.285,0,0.050964095
0.286,0,0.050964095
0.287,0,0.050964095
0.288,0,0.050964095
0.289,0,0.050964095
0.29,0,0.050964095
0.291,0,0.050964095
0.292,0,0.050964095
0.293,0,0.050964095
0.294,0,0.050964095
0.295,0,0.050964095
0.296,0,0.050964095
0.297,0,0.050964095
0.298,0,0.050964095
0.299,0,0.050964095
0.3,0,0.050964095
0.301,0,0.050964095
0.302,0,0.050964095
0.303,0,0.050964095
0.304,0,0.050964095
0.305,0,0.050964095
0.306,0,0.050964095
0.307,0,0.050964095
0.308,0,0.050964095
0.309,0,0.050964095
0.31,0,0.050964095
0.311,0,0.050964095
0.312,0,0.050964095
0.313,0,0.050964095
0.314,0,0.050964095
0.315,0,0.050964095
0.316,0,0.050964095
0.317,0,0.050964095
0.318,0,0.050964095
0.319,0,0.050964095
0.32,0,0.050964095
0.321,0,0.050964095
0.322,0,0.050964095
0.323,0,0.050964095
0.324,0,0.050964095
0.325,0,0.050964095
0.326,0,0.050964095
0.327,0,0.050964095
0.328,0,0.050964095
0.329,0,0.050964095
0.33,0,0.050964095
0.331,0,0.050964095
0.332,0,0.050964095
0.333,0,0.050964095
0.334,0,0.050964095
0.335,0,0.050964095
0.336,0,0.050964095
0.337,0,0.050964095
0.338,0,0.050964095
0.339,0,0.050964095
0.34,0,0.050964095
0.341,0,0.050964095
0.342,0,0.050964095
0.343,0,0.050964095
0.344,0,0.050964095
0.345,0,0.050964095
0.346,0,0.050964095
0.347,0,0.050964095
0.348,0,0.050964095
0.349,0,0.050964095
0.35,0,0.050964095
0.351,0,0.050964095
0.352,0,0.050964095
0.353,0,0.050964095
0.354,0,0.050964095
0.355,0,0.050964095
0.356,0,0.050964095
0.357,0,0.050964095
0.358,0,0.050964095
0.359,0,0.050964095
0.36,0,0.050964095
0.361,0,0.050964095
0.362,0,0.050964095
0.363,0,0.050964095
0.364,0,0.050964095
0.365,0,0.050964095
0.366,0,0.050964095
0.367,0,0.050964095
0.368,0,0.050964095
0.369,0,0.050964095
0.37,0,0.050964095
0.371,0,0.050964095
0.372,0,0.050964095
0.373,0,0.050964095
0.374,0,0.050964095
0.375,0,0.050964095
0.376,0,0.050964095
0.377,0,0.050964095
0.378,0,0.050964095
0.379,0,0.050964095
0.38,0,0.050964095
0.381,0,0.050964095
0.382,0,0.050964095
0.383,0,0.050964095
0.384,0,0.050964095
0.385,0,0.050964095
0.386,0,0.050964095
0.387,0,0.050964095
0.388,0,0.050964095
0.389,0,0.050964095
0.39,0,0.050964095
0.391,0,0.050964095
0.392,0,0.050964095
0.393,0,0.050964095
0.394,0,0.050964095
0.395,0,0.050964095
0.396,0,0.050964095
0.397,0,0.050964095
0.398,0,0.050964095
0.399,0,0.050964095
0.4,0,0.050964095
0.401,0,0.050964095
0.402,0,0.050964095
0.403,0,0.050964095
0.404,0,0.050964095
0.405,0,0.050964095
0.406,0,0.050964095
0.407,0,0.050964095
0.408,0,0.050964095
0.409,0,0.050964095
0.41,0,0.050964095
0.411,0,0.050964095
0.412,0,0.050964095
0.413,0,0.050964095
0.414,0,0.050964095
0.415,0,0.050964095
0.416,0,0.050964095
0.417,0,0.050964095
0.418,0,0.050964095
0.419,0,0.050964095
0.42,0,0.050964095
0.421,0,0.050964095
0.422,0,0.050964095
0.423,0,0.050964095
0.424,0,0.050964095
0.425,0,0.050964095
0.426,0,0.050964095
0.427,0,0.050964095
0.428,0,0.050964095
0.429,0,0.050964095
0.43,0,0.050964095
0.431,0,0.050964095
0.432,0,0.050964095
0.433,0,0.050964095
0.434,0,0.050964095
0.435,0,0.050964095
0.436,0,0.050964095
0.437,0,0.050964095
0.438,0,0.050964095
0.439,0,0.050964095
0.44,0,0.050964095
0.441,0,0.050964095
0.442,0,0.050964095
0.443,0,0.050964095
0.444,0,0.050964095
0.445,0,0.050964095
0.446,0,0.050964095
0.447,0,0.050964095
0.448,0,0.050964095
0.449,0,0.050964095
0.45,0,0.050964095
0.451,0,0.050964095
0.452,0,0.050964095
0.453,0,0.050964095
0.454,0,0.050964095
0.455,0,0.050964095
0.456,0,0.050964095
0.457,0,0.050964095
0.458,0,0.050964095
0.459,0,0.050964095
0.46,0,0.050964095
0.461,0,0.050964095
0.462,0,0.050964095
0.463,0,0.050964095
0.464,0,0.050964095
0.465,0,0.050964095
0.466,0,0.050964095
0.467,0,0.050964095
0.468,0,0.050964095
0.469,0,0.050964095
0.47,0,0.050964095
0.471,0,0.050964095
0.472,0,0.050964095
0.473,0,0.050964095
0.474,0,0.050964095
0.475,0,0.050964095
0.476,0,0.050964095
0.477,0,0.050964095
0.478,0,0.050964095
0.479,0,0.050964095
0.48,0,0.050964095
0.481,0,0.050964095
0.482,0,0.050964095
0.483,0,0.050964095
0.484,0,0.050964095
0.485,0,0.050964095
0.486,0,0.050964095
0.487,0,0.050964095
0.488,0,0.050964095
0.489,0,0.050964095
0.49,0,0.050964095
0.491,0,0.050964095
0.492,0,0.050964095
0.493,0,0.050964095
0.494,0,0.050964095
0.495,0,0.050964095
0.496,0,0.050964095
0.497,0,0.050964095
0.498,0,0.050964095
0.499,0,0.050964095
0.5,0,0.050964095
0.501,0,0.050964095
0.502,0,0.050964095
0.503,0,0.050964095
0.504,0,0.050964095
0.505,0,0.050964095
0.506,0,0.050964095
0.507,0,0.050964095
0.508,0,0.050964095
0.509,0,0.050964095
0.51,0,0.050964095
0.511,0,0.050964095
0.512,0,0.050964095
0.513,0,0.050964095
0.514,0,0.050964095
0.515,0,0.050964095
0.516,0,0.050964095
0.517,0,0.050964095
0.518,0,0.050964095
0.519,0,0.050964095
0.52,0,0.050964095
0.521,0,0.050964095
0.522,0,0.050964095
0.523,0,0.050964095
0.524,0,0.050964095
0.525,0,0.050964095
0.526,0,0.050964095
0.527,0,0.050964095
0.528,0,0.050964095
0.529,0,0.050964095
0.53,0,0.050964095
0.531,0,0.050964095
0.532,0,0.050964095
0.533,0,0.050964095
0.534,0,0.050964095
0.535,0,0.050964095
0.536,0,0.050964095
0.537,0,0.050964095
0.538,0,0.050964095
0.539,0,0.050964095
0.54,0,0.050964095
0.541,0,0.050964095
0.542,0,0.050964095
0.543,0,0.050964095
0.544,0,0.050964095
0.545,0,0.050964095
0.546,0,0.050964095
0.547,0,0.050964095
0.548,0,0.050964095
0.549,0,0.050964095
0.55,0,0.050964095
0.551,0,0.050964095
0.552,0,0.050964095
0.553,0,0.050964095
0.554,0,0.050964095
0.555,0,0.050964095
0.556,0,0.050964095
0.557,0,0.050964095
0.558,0,0.050964095
0.559,0,0.050964095
0.56,0,0.050964095
0.561,0,0.050964095
0.562,0,0.050964095
0.563,0,0.050964095
0.564,0,0.050964095
0.565,0,0.050964095
0.566,0,0.050964095
0.567,0,0.050964095
0.568,0,0.050964095
0.569,0,0.050964095
0.57,0,0.050964095
0.571,0,0.050964095
0.572,0,0.050964095
0.573,0,0.050964095
0.574,0,0.050964095
0.575,0,0.050964095
0.576,0,0.050964095
0.577,0,0.050964095
0.578,0,0.050964095
0.579,0,0.050964095
0.58,0,0.050964095
0.581,0,0.050964095
0.582,0,0.050964095
0.583,0,0.050964095
0.584,0,0.050964095
0.585,0,0.050964095
0.586,0,0.050964095
0.587,0,0.050964095
0.588,0,0.050964095
0.589,0,0.050964095
0.59,0,0.050964095
0.591,0,0.050964095
0.592,0,0.050964095
0.593,0,0.050964095
0.594,0,0.050964095
0.595,0,0.050964095
0.596,0,0.050964095
0.597,0,0.050964095
0.598,0,0.050964095
0.599,0,0.050964095
0.6,0,0.050964095
0.601,0,0.050964095
0.602,0,0.050964095
0.603,0,0.050964095
0.604,0,0.050964095
0.605,0,0.050964095
0.606,0,0.050964095
0.607,0,0.050964095
0.608,0,0.050964095
0.609,0,0.050964095
0.61,0,0.050964095
0.611,0,0.050964095
0.612,0,0.050964095
0.613,0,0.050964095
0.614,0,0.050964095
0.615,0,0.050964095
0.616,0,0.050964095
0.617,0,0.050964095
0.618,0,0.050964095
0.619,0,0.050964095
0.62,0,0.050964095
0.621,0,0.050964095
0.622,0,0.050964095
0.623,0,0.050964095
0.624,0,0.050964095
0.625,0,0.050964095
0.626,0,0.050964095
0.627,0,0.050964095
0.628,0,0.050964095
0.629,0,0.050964095
0.63,0,0.050964095
0.631,0,0.050964095
0.632,0,0.050964095
0.633,0,0.050964095
0.634,0,0.050964095
0.635,0,0.050964095
0.636,0,0.050964095
0.637,0,0.050964095
0.638,0,0.050964095
0.639,0,0.050964095
0.64,0,0.050964095
0.641,0,0.050964095
0.642,0,0.050964095
0.643,0,0.050964095
0.644,0,0.050964095
0.645,0,0.050964095
0.646,0,0.050964095
0.647,0,0.050964095
0.648,0,0.050964095
0.649,0,0.050964095
0.65,0,0.050964095
0.651,0,0.050964095
0.652,0,0.050964095
0.653,0,0.050964095
0.654,0,0.050964095
0.655,0,0.050964095
0.656,0,0.050964095
0.657,0,0.050964095
0.658,0,0.050964095
0.659,0,0.050964095
0.66,0,0.050964095
0.661,0,0.050964095
0.662,0,0.050964095
0.663,0,0.050964095
0.664,0,0.050964095
0.665,0,0.050964095
0.666,0,0.050964095
0.667,0,0.050964095
0.668,0,0.050964095
0.669,0,0.050964095
0.67,0,0.050964095
0.671,0,0.050964095
0.672,0,0.050964095
0.673,0,0.050964095
0.674,0,0.050964095
0.675,0,0.050964095
0.676,0,0.050964095
0.677,0,0.050964095
0.678,0,0.050964095
0.679,0,0.050964095
0.68,0,0.050964095
0.681,0,0.050964095
0.682,0,0.050964095
0.683,0,0.050964095
0.684,0,0.050964095
0.685,0,0.050964095
0.686,0,0.050964095
0.687,0,0.050964095
0.688,0,0.050964095
0.689,0,0.050964095
0.69,0,0.050964095
0.691,0,0.050964095
0.692,0,0.050964095
0.693,0,0.050964095
0.694,0,0.050964095
0.695,0,0.050964095
0.696,0,0.050964095
0.697,0,0.050964095
0.698,0,0.050964095
0.699,0,0.050964095
0.7,0,0.050964095
0.701,0,0.050964095
0.702,0,0.050964095
0.703,0,0.050964095
0.704,0,0.050964095
0.705,0,0.050964095
0.706,0,0.050964095
0.707,0,0.050964095
0.708,0,0.050964095
0.709,0,0.050964095
0.71,0,0.050964095
0.711,0,0.050964095
0.712,0,0.050964095
0.713,0,0.050964095
0.714,0,0.050964095
0.715,0,0.050964095
0.716,0,0.050964095
0.717,0,0.050964095
0.718,0,0.050964095
0.719,0,0.050964095
0.72,0,0.050964095
0.721,0,0.050964095
0.722,0,0.050964095
0.723,0,0.050964095
0.724,0,0.050964095
0.725,0,0.050964095
0.726,0,0.050964095
0.727,0,0.050964095
0.728,0,0.050964095
0.729,0,0.050964095
0.73,0,0.050964095
0.731,0,0.050964095
0.732,0,0.050964095
0.733,0,0.050964095
0.734,0,0.050964095
0.735,0,0.050964095
0.736,0,0.050964095
0.737,0,0.050964095
0.738,0,0.050964095
0.739,0,0.050964095
0.74,0,0.050964095
0.741,0,0.050964095
0.742,0,0.050964095
0.743,0,0.050964095
0.744,0,0.050964095
0.745,0,0.050964095
0.746,0,0.050964095
0.747,0,0.050964095
0.748,0,0.050964095
0.749,0,0.050964095
0.75,0,0.050964095
0.751,0,0.050964095
0.752,0,0.050964095
0.753,0,0.050964095
0.754,0,0.050964095
0.755,0,0.050964095
0.756,0,0.050964095
0.757,0,0.050964095
0.758,0,0.050964095
0.759,0,0.050964095
0.76,0,0.050964095
0.761,0,0.050964095
0.762,0,0.050964095
0.763,0,0.050964095
0.764,0,0.050964095
0.765,0,0.050964095
0.766,0,0.050964095
0.767,0,0.050964095
0.768,0,0.050964095
0.769,0,0.050964095
0.77,0,0.050964095
0.771,0,0.050964095
0.772,0,0.050964095
0.773,0,0.050964095
0.774,0,0.050964095
0.775,0,0.050964095
0.776,0,0.050964095
0.777,0,0.050964095
0.778,0,0.050964095
0.779,0,0.050964095
0.78,0,0.050964095
0.781,0,0.050964095
0.782,0,0.050964095
0.783,0,0.050964095
0.784,0,0.050964095
0.785,0,0.050964095
0.786,0,0.050964095
0.787,0,0.050964095
0.788,0,0.050964095
0.789,0,0.050964095
0.79,0,0.050964095
0.791,0,0.050964095
0.792,0,0.050964095
0.793,0,0.050964095
0.794,0,0.050964095
0.795,0,0.050964095
0.796,0,0.050964095
0.797,0,0.050964095
0.798,0,0.050964095
0.799,0,0.050964095
0.8,0,0.050964095
0.801,0,0.050964095
0.802,0,0.050964095
0.803,0,0.050964095
0.804,0,0.050964095
0.805,0,0.050964095
0.806,0,0.050964095
0.807,0,0.050964095
0.808,0,0.050964095
0.809,0,0.050964095
0.81,0,0.050964095
0.811,0,0.050964095
0.812,0,0.050964095
0.813,0,0.050964095
0.814,0,0.050964095
0.815,0,0.050964095
0.816,0,0.050964095
0.817,0,0.050964095
0.818,0,0.050964095
0.819,0,0.050964095
0.82,0,0.050964095
0.821,0,0.050964095
0.822,0,0.050964095
0.823,0,0.050964095
0.824,0,0.050964095
0.825,0,0.050964095
0.826,0,0.050964095
0.827,0,0.050964095
0.828,0,0.050964095
0.829,0,0.050964095
0.83,0,0.050964095
0.831,0,0.050964095
0.832,0,0.050964095
0.833,0,0.050964095
0.834,0,0.050964095
0.835,0,0.050964095
0.836,0,0.050964095
0.837,0,0.050964095
0.838,0,0.050964095
0.839,0,0.050964095
0.84,0,0.050964095
0.841,0,0.050964095
0.842,0,0.050964095
0.843,0,0.050964095
0.844,0,0.050964095
0.845,0,0.050964095
0.846,0,0.050964095
0.847,0,0.050964095
0.848,0,0.050964095
0.849,0,0.050964095
0.85,0,0.050964095
0.851,0,0.050964095
0.852,0,0.050964095
0.853,0,0.050964095
0.854,0,0.050964095
0.855,0,0.050964095
0.856,0,0.050964095
0.857,0,0.050964095
0.858,0,0.050964095
0.859,0,0.050964095
0.86,0,0.050964095
0.861,0,0.050964095
0.862,0,0.050964095
0.863,0,0.050964095
0.864,0,0.050964095
0.865,0,0.050964095
0.866,0,0.050964095
0.867,0,0.050964095
0.868,0,0.050964095
0.869,0,0.050964095
0.87,0,0.050964095
0.871,0,0.050964095
0.872,0,0.050964095
0.873,0,0.050964095
0.874,0,0.050964095
0.875,0,0.050964095
0.876,0,0.050964095
0.877,0,0.050964095
0.878,0,0.050964095
0.879,0,0.050964095
0.88,0,0.050964095
0.881,0,0.050964095
0.882,0,0.050964095
0.883,0,0.050964095
0.884,0,0.050964095
0.885,0,0.050964095
0.886,0,0.050964095
0.887,0,0.050964095
0.888,0,0.050964095
0.889,0,0.050964095
0.89,0,0.050964095
0.891,0,0.050964095
0.892,0,0.050964095
0.893,0,0.050964095
0.894,0,0.050964095
0.895,0,0.050964095
0.896,0,0.050964095
0.897,0,0.050964095
0.898,0,0.050964095
0.899,0,0.050964095
0.9,0,0.050964095
0.901,0,0.050964095
0.902,0,0.050964095
0.903,0,0.050964095
0.904,0,0.050964095
0.905,0,0.050964095
0.906,0,0.050964095
0.907,0,0.050964095
0.908,0,0.050964095
0.909,0,0.050964095
0.91,0,0.050964095
0.911,0,0.050964095
0.912,0,0.050964095
0.913,0,0.050964095
0.914,0,0.050964095
0.915,0,0.050964095
0.916,0,0.050964095
0.917,0,0.050964095
0.918,0,0.050964095
0.919,0,0.050964095
0.92,0,0.050964095
0.921,0,0.050964095
0.922,0,0.050964095
0.923,0,0.050964095
0.924,0,0.050964095
0.925,0,0.050964095
0.926,0,0.050964095
0.927,0,0.050964095
0.928,0,0.050964095
0.929,0,0.050964095
0.93,0,0.050964095
0.931,0,0.050964095
0.932,0,0.050964095
0.933,0,0.050964095
0.934,0,0.050964095
0.935,0,0.050964095
0.936,0,0.050964095
0.937,0,0.050964095
0.938,0,0.050964095
0.939,0,0.050964095
0.94,0,0.050964095
0.941,0,0.050964095
0.942,0,0.050964095
0.943,0,0.050964095
0.944,0,0.050964095
0.945,0,0.050964095
0.946,0,0.050964095
0.947,0,0.050964095
0.948,0,0.050964095
0.949,0,0.050964095
0.95,0,0.050964095
0.951,0,0.050964095
0.952,0,0.050964095
0.953,0,0.050964095
0.954,0,0.050964095
0.955,0,0.050964095
0.956,0,0.050964095
0.957,0,0.050964095
0.958,0,0.050964095
0.959,0,0.050964095
0.96,0,0.050964095
0.961,0,0.050964095
0.962,0,0.050964095
0.963,0,0.050964095
0.964,0,0.050964095
0.965,0,0.050964095
0.966,0,0.050964095
0.967,0,0.050964095
0.968,0,0.050964095
0.969,0,0.050964095
0.97,0,0.050964095
0.971,0,0.050964095
0.972,0,0.050964095
0.973,0,0.050964095
0.974,0,0.050964095
0.975,0,0.050964095
0.976,0,0.050964095
0.977,0,0.050964095
0.978,0,0.050964095
